== Filter Data - Lambda 9 Spectrophotometer ==
  Kitt Peak National Observatory - NOAO
------------------------------------------------
Filter: K1005  1NM/60NMPERMIN/1S   650-1000NMNM
Date: 08/25/04   Time: 14:05:24  Operator: HS
cwl=  8222.48A  fwhm= 1920.94A  Tmax= 94.54% at  7810.00A
Tcutoff=  2.00 %  Slitsize = 10 A
fwhm spans 7262.01A to 9182.95A
90%  spans 7472.85A to 8965.75A
bw90 is  0.777; Tmin90/Tmax is  0.900
No data smoothing

Npts=  351     Disp= 10.00A/Interval
*****
  6500.00    -0.005
  6510.00     0.000
  6520.00    -0.005
  6530.00    -0.005
  6540.00    -0.005
  6550.00    -0.005
  6560.00    -0.005
  6570.00     0.000
  6580.00    -0.005
  6590.00    -0.005
  6600.00     0.000
  6610.00     0.000
  6620.00     0.000
  6630.00     0.000
  6640.00     0.000
  6650.00     0.000
  6660.00    -0.005
  6670.00     0.000
  6680.00    -0.005
  6690.00    -0.005
  6700.00    -0.005
  6710.00    -0.005
  6720.00    -0.005
  6730.00     0.000
  6740.00    -0.005
  6750.00    -0.005
  6760.00    -0.005
  6770.00    -0.005
  6780.00    -0.005
  6790.00    -0.005
  6800.00    -0.005
  6810.00    -0.005
  6820.00    -0.005
  6830.00     0.000
  6840.00     0.000
  6850.00    -0.005
  6860.00     0.000
  6870.00     0.000
  6880.00     0.000
  6890.00    -0.005
  6900.00    -0.020
  6910.00     0.000
  6920.00     0.000
  6930.00     0.005
  6940.00     0.005
  6950.00     0.015
  6960.00     0.030
  6970.00     0.055
  6980.00     0.095
  6990.00     0.160
  7000.00     0.255
  7010.00     0.405
  7020.00     0.610
  7030.00     0.890
  7040.00     1.270
  7050.00     1.765
  7060.00     2.390
  7070.00     3.165
  7080.00     4.110
  7090.00     5.230
  7100.00     6.570
  7110.00     8.100
  7120.00     9.815
  7130.00    11.720
  7140.00    13.835
  7150.00    16.135
  7160.00    18.540
  7170.00    21.125
  7180.00    23.880
  7190.00    26.655
  7200.00    29.615
  7210.00    32.510
  7220.00    35.420
  7230.00    38.370
  7240.00    41.155
  7250.00    44.050
  7260.00    46.740
  7270.00    49.375
  7280.00    51.815
  7290.00    54.280
  7300.00    56.555
  7310.00    58.890
  7320.00    60.995
  7330.00    63.020
  7340.00    64.935
  7350.00    66.850
  7360.00    68.680
  7370.00    70.330
  7380.00    72.035
  7390.00    73.705
  7400.00    75.345
  7410.00    77.000
  7420.00    78.320
  7430.00    79.795
  7440.00    81.310
  7450.00    82.620
  7460.00    83.660
  7470.00    84.845
  7480.00    85.690
  7490.00    86.820
  7500.00    87.630
  7510.00    88.375
  7520.00    88.990
  7530.00    89.390
  7540.00    89.990
  7550.00    90.115
  7560.00    90.530
  7570.00    90.660
  7580.00    90.585
  7590.00    90.885
  7600.00    90.795
  7610.00    90.930
  7620.00    91.025
  7630.00    91.255
  7640.00    91.260
  7650.00    91.220
  7660.00    91.305
  7670.00    91.495
  7680.00    91.680
  7690.00    91.970
  7700.00    92.165
  7710.00    92.580
  7720.00    92.655
  7730.00    92.880
  7740.00    93.195
  7750.00    93.490
  7760.00    93.675
  7770.00    93.955
  7780.00    94.155
  7790.00    94.375
  7800.00    94.375
  7810.00    94.540
  7820.00    94.405
  7830.00    94.495
  7840.00    94.345
  7850.00    94.075
  7860.00    93.905
  7870.00    93.765
  7880.00    93.670
  7890.00    93.220
  7900.00    93.060
  7910.00    92.830
  7920.00    92.510
  7930.00    92.230
  7940.00    91.965
  7950.00    92.025
  7960.00    92.070
  7970.00    91.735
  7980.00    91.635
  7990.00    91.805
  8000.00    91.830
  8010.00    92.120
  8020.00    92.395
  8030.00    92.330
  8040.00    92.415
  8050.00    92.730
  8060.00    93.225
  8070.00    93.315
  8080.00    93.230
  8090.00    93.470
  8100.00    93.790
  8110.00    93.720
  8120.00    93.795
  8130.00    93.685
  8140.00    93.820
  8150.00    93.725
  8160.00    93.760
  8170.00    93.605
  8180.00    93.535
  8190.00    93.495
  8200.00    93.130
  8210.00    92.800
  8220.00    92.705
  8230.00    92.720
  8240.00    92.625
  8250.00    92.155
  8260.00    92.385
  8270.00    91.975
  8280.00    91.985
  8290.00    92.135
  8300.00    91.965
  8310.00    91.715
  8320.00    92.100
  8330.00    92.140
  8340.00    92.025
  8350.00    91.955
  8360.00    92.360
  8370.00    92.150
  8380.00    92.305
  8390.00    92.285
  8400.00    92.510
  8410.00    92.480
  8420.00    92.700
  8430.00    92.300
  8440.00    92.045
  8450.00    91.850
  8460.00    92.185
  8470.00    92.075
  8480.00    91.835
  8490.00    91.885
  8500.00    91.000
  8510.00    91.385
  8520.00    91.105
  8530.00    90.775
  8540.00    90.710
  8550.00    90.445
  8560.00    90.910
  8570.00    90.220
  8580.00    90.095
  8590.00    90.510
  8600.00    90.165
  8610.00    91.160
  8620.00    91.105
  8630.00    91.105
  8640.00    91.070
  8650.00    91.100
  8660.00    91.070
  8670.00    91.050
  8680.00    90.940
  8690.00    90.950
  8700.00    90.810
  8710.00    90.715
  8720.00    90.545
  8730.00    90.305
  8740.00    90.080
  8750.00    89.785
  8760.00    89.445
  8770.00    89.120
  8780.00    88.755
  8790.00    88.365
  8800.00    88.010
  8810.00    87.625
  8820.00    87.265
  8830.00    86.955
  8840.00    86.720
  8850.00    86.515
  8860.00    86.355
  8870.00    86.245
  8880.00    86.165
  8890.00    86.185
  8900.00    86.190
  8910.00    86.175
  8920.00    86.175
  8930.00    86.125
  8940.00    86.010
  8950.00    85.790
  8960.00    85.385
  8970.00    84.865
  8980.00    84.095
  8990.00    83.090
  9000.00    81.940
  9010.00    80.530
  9020.00    78.945
  9030.00    77.190
  9040.00    75.315
  9050.00    73.280
  9060.00    71.295
  9070.00    69.365
  9080.00    67.500
  9090.00    65.855
  9100.00    64.240
  9110.00    62.830
  9120.00    61.475
  9130.00    60.155
  9140.00    58.805
  9150.00    57.095
  9160.00    54.950
  9170.00    52.165
  9180.00    48.560
  9190.00    44.185
  9200.00    38.955
  9210.00    33.385
  9220.00    27.810
  9230.00    22.595
  9240.00    17.960
  9250.00    14.085
  9260.00    10.930
  9270.00     8.480
  9280.00     6.490
  9290.00     4.980
  9300.00     3.860
  9310.00     3.015
  9320.00     2.355
  9330.00     1.885
  9340.00     1.490
  9350.00     1.180
  9360.00     0.960
  9370.00     0.760
  9380.00     0.640
  9390.00     0.490
  9400.00     0.425
  9410.00     0.370
  9420.00     0.330
  9430.00     0.225
  9440.00     0.230
  9450.00     0.200
  9460.00     0.140
  9470.00     0.175
  9480.00     0.165
  9490.00     0.085
  9500.00     0.115
  9510.00     0.115
  9520.00     0.075
  9530.00     0.090
  9540.00     0.085
  9550.00     0.035
  9560.00     0.100
  9570.00     0.050
  9580.00     0.045
  9590.00     0.045
  9600.00     0.070
  9610.00     0.030
  9620.00     0.030
  9630.00     0.050
  9640.00     0.080
  9650.00     0.055
  9660.00     0.060
  9670.00     0.045
  9680.00     0.050
  9690.00     0.030
  9700.00     0.030
  9710.00     0.030
  9720.00     0.035
  9730.00     0.035
  9740.00     0.085
  9750.00     0.060
  9760.00     0.080
  9770.00     0.050
  9780.00     0.035
  9790.00     0.040
  9800.00     0.005
  9810.00     0.005
  9820.00     0.075
  9830.00     0.030
  9840.00     0.025
  9850.00     0.065
  9860.00     0.065
  9870.00     0.035
  9880.00     0.025
  9890.00     0.020
  9900.00     0.040
  9910.00     0.040
  9920.00     0.040
  9930.00     0.010
  9940.00     0.060
  9950.00     0.030
  9960.00     0.040
  9970.00     0.015
  9980.00     0.045
  9990.00     0.060
 10000.00     0.075

